"Time (EpSec)","x (km)","y (km)","z (km)"
0.000,5947.669315,-5242.103753,30.565527
1.000,5947.996498,-5241.687041,37.562122
2.000,5948.319025,-5241.266220,44.558686
3.000,5948.636897,-5240.841289,51.555215
4.000,5948.950114,-5240.412248,58.551702
5.000,5949.258676,-5239.979097,65.548143
6.000,5949.562584,-5239.541835,72.544532
7.000,5949.861838,-5239.100462,79.540862
8.000,5950.156439,-5238.654977,86.537129
9.000,5950.446386,-5238.205381,93.533327
10.000,5950.731680,-5237.751673,100.529450
11.000,5951.012322,-5237.293853,107.525494
12.000,5951.288312,-5236.831920,114.521451
13.000,5951.559650,-5236.365874,121.517317
14.000,5951.826336,-5235.895715,128.513085
15.000,5952.088372,-5235.421442,135.508751
16.000,5952.345757,-5234.943056,142.504309
17.000,5952.598492,-5234.460555,149.499754
18.000,5952.846578,-5233.973940,156.495079
19.000,5953.090014,-5233.483210,163.490278
20.000,5953.328801,-5232.988365,170.485348
21.000,5953.562939,-5232.489405,177.480281
22.000,5953.792429,-5231.986329,184.475073
23.000,5954.017272,-5231.479137,191.469717
24.000,5954.237468,-5230.967829,198.464208
25.000,5954.453016,-5230.452404,205.458541
26.000,5954.663918,-5229.932863,212.452710
27.000,5954.870175,-5229.409205,219.446710
28.000,5955.071785,-5228.881430,226.440534
29.000,5955.268751,-5228.349537,233.434177
30.000,5955.461072,-5227.813526,240.427634
31.000,5955.648749,-5227.273397,247.420899
32.000,5955.831782,-5226.729150,254.413967
33.000,5956.010171,-5226.180785,261.406831
34.000,5956.183918,-5225.628301,268.399487
35.000,5956.353023,-5225.071697,275.391928
36.000,5956.517486,-5224.510975,282.384150
37.000,5956.677307,-5223.946133,289.376146
38.000,5956.832487,-5223.377171,296.367911
39.000,5956.983027,-5222.804090,303.359440
40.000,5957.128927,-5222.226888,310.350726
41.000,5957.270187,-5221.645566,317.341765
42.000,5957.406808,-5221.060123,324.332550
43.000,5957.538791,-5220.470559,331.323076
44.000,5957.666136,-5219.876875,338.313338
45.000,5957.788843,-5219.279069,345.303329
46.000,5957.906913,-5218.677142,352.293045
47.000,5958.020347,-5218.071093,359.282480
48.000,5958.129145,-5217.460922,366.271628
49.000,5958.233307,-5216.846630,373.260483
50.000,5958.332835,-5216.228215,380.249041
51.000,5958.427727,-5215.605678,387.237295
52.000,5958.517986,-5214.979018,394.225239
53.000,5958.603612,-5214.348235,401.212869
54.000,5958.684605,-5213.713330,408.200179
55.000,5958.760965,-5213.074301,415.187163
56.000,5958.832694,-5212.431149,422.173815
57.000,5958.899792,-5211.783874,429.160130
58.000,5958.962258,-5211.132475,436.146103
59.000,5959.020095,-5210.476952,443.131727
60.000,5959.073302,-5209.817306,450.116998
61.000,5959.121880,-5209.153535,457.101909
62.000,5959.165830,-5208.485640,464.086455
63.000,5959.205152,-5207.813621,471.070631
64.000,5959.239847,-5207.137477,478.054431
65.000,5959.269915,-5206.457208,485.037849
66.000,5959.295356,-5205.772815,492.020880
67.000,5959.316173,-5205.084297,499.003518
68.000,5959.332364,-5204.391653,505.985758
69.000,5959.343931,-5203.694885,512.967593
70.000,5959.350874,-5202.993991,519.949020
71.000,5959.353194,-5202.288972,526.930031
72.000,5959.350891,-5201.579827,533.910621
73.000,5959.343966,-5200.866557,540.890785
74.000,5959.332420,-5200.149161,547.870517
75.000,5959.316253,-5199.427639,554.849812
76.000,5959.295466,-5198.701991,561.828664
77.000,5959.270060,-5197.972217,568.807067
78.000,5959.240035,-5197.238316,575.785017
79.000,5959.205391,-5196.500290,582.762506
80.000,5959.166130,-5195.758137,589.739531
81.000,5959.122251,-5195.011858,596.716084
82.000,5959.073757,-5194.261452,603.692161
83.000,5959.020646,-5193.506919,610.667756
84.000,5958.962921,-5192.748260,617.642864
85.000,5958.900581,-5191.985474,624.617478
86.000,5958.833627,-5191.218562,631.591594
87.000,5958.762060,-5190.447522,638.565206
88.000,5958.685881,-5189.672356,645.538307
89.000,5958.605090,-5188.893062,652.510894
90.000,5958.519688,-5188.109641,659.482959
91.000,5958.429675,-5187.322094,666.454498
92.000,5958.335052,-5186.530419,673.425505
93.000,5958.235821,-5185.734617,680.395974
94.000,5958.131981,-5184.934687,687.365900
95.000,5958.023533,-5184.130631,694.335278
96.000,5957.910478,-5183.322447,701.304100
97.000,5957.792817,-5182.510135,708.272364
98.000,5957.670550,-5181.693697,715.240061
99.000,5957.543678,-5180.873130,722.207188
100.000,5957.412202,-5180.048437,729.173738
101.000,5957.276122,-5179.219616,736.139705
102.000,5957.135440,-5178.386667,743.105086
103.000,5956.990155,-5177.549591,750.069872
104.000,5956.840269,-5176.708388,757.034060
105.000,5956.685782,-5175.863057,763.997644
106.000,5956.526696,-5175.013598,770.960618
107.000,5956.363010,-5174.160012,777.922976
108.000,5956.194725,-5173.302299,784.884713
109.000,5956.021843,-5172.440458,791.845823
110.000,5955.844364,-5171.574489,798.806302
111.000,5955.662288,-5170.704393,805.766142
112.000,5955.475617,-5169.830170,812.725339
113.000,5955.284351,-5168.951819,819.683888
114.000,5955.088491,-5168.069341,826.641782
115.000,5954.888038,-5167.182736,833.599016
116.000,5954.682993,-5166.292003,840.555584
117.000,5954.473355,-5165.397143,847.511482
118.000,5954.259127,-5164.498155,854.466703
119.000,5954.040308,-5163.595041,861.421241
120.000,5953.816900,-5162.687799,868.375092
121.000,5953.588904,-5161.776430,875.328250
122.000,5953.356319,-5160.860934,882.280709
123.000,5953.119148,-5159.941311,889.232463
124.000,5952.877390,-5159.017561,896.183508
125.000,5952.631046,-5158.089684,903.133837
126.000,5952.380119,-5157.157680,910.083445
127.000,5952.124607,-5156.221550,917.032326
128.000,5951.864512,-5155.281293,923.980476
129.000,5951.599834,-5154.336909,930.927887
130.000,5951.330576,-5153.388399,937.874556
131.000,5951.056736,-5152.435762,944.820475
132.000,5950.778317,-5151.478999,951.765641
133.000,5950.495319,-5150.518109,958.710046
134.000,5950.207743,-5149.553094,965.653686
135.000,5949.915589,-5148.583952,972.596555
136.000,5949.618859,-5147.610685,979.538648
137.000,5949.317553,-5146.633291,986.479959
138.000,5949.011673,-5145.651772,993.420482
139.000,5948.701218,-5144.666127,1000.360212
140.000,5948.386190,-5143.676356,1007.299143
141.000,5948.066590,-5142.682460,1014.237270
142.000,5947.742419,-5141.684439,1021.174587
143.000,5947.413677,-5140.682293,1028.111089
144.000,5947.080365,-5139.676021,1035.046771
145.000,5946.742485,-5138.665625,1041.981626
146.000,5946.400036,-5137.651104,1048.915649
147.000,5946.053021,-5136.632458,1055.848834
148.000,5945.701439,-5135.609687,1062.781177
149.000,5945.345292,-5134.582793,1069.712671
150.000,5944.984580,-5133.551773,1076.643311
151.000,5944.619305,-5132.516630,1083.573092
152.000,5944.249467,-5131.477363,1090.502008
153.000,5943.875068,-5130.433973,1097.430053
154.000,5943.496108,-5129.386458,1104.357221
155.000,5943.112587,-5128.334820,1111.283508
156.000,5942.724508,-5127.279059,1118.208908
157.000,5942.331870,-5126.219175,1125.133415
158.000,5941.934676,-5125.155168,1132.057024
159.000,5941.532925,-5124.087038,1138.979729
160.000,5941.126618,-5123.014785,1145.901525
161.000,5940.715757,-5121.938410,1152.822406
162.000,5940.300343,-5120.857913,1159.742367
163.000,5939.880376,-5119.773294,1166.661401
164.000,5939.455857,-5118.684553,1173.579505
165.000,5939.026788,-5117.591691,1180.496671
166.000,5938.593169,-5116.494707,1187.412895
167.000,5938.155001,-5115.393602,1194.328171
168.000,5937.712285,-5114.288376,1201.242493
169.000,5937.265022,-5113.179029,1208.155856
170.000,5936.813213,-5112.065561,1215.068255
171.000,5936.356859,-5110.947973,1221.979684
172.000,5935.895961,-5109.826265,1228.890137
173.000,5935.430520,-5108.700437,1235.799609
174.000,5934.960537,-5107.570490,1242.708094
175.000,5934.486013,-5106.436423,1249.615588
176.000,5934.006948,-5105.298237,1256.522083
177.000,5933.523344,-5104.155931,1263.427576
178.000,5933.035203,-5103.009508,1270.332059
179.000,5932.542524,-5101.858965,1277.235529
180.000,5932.045308,-5100.704305,1284.137979
181.000,5931.543558,-5099.545526,1291.039404
182.000,5931.037273,-5098.382630,1297.939798
183.000,5930.526455,-5097.215616,1304.839155
184.000,5930.011105,-5096.044485,1311.737471
185.000,5929.491224,-5094.869237,1318.634740
186.000,5928.966812,-5093.689872,1325.530956
187.000,5928.437872,-5092.506391,1332.426114
188.000,5927.904403,-5091.318794,1339.320208
189.000,5927.366407,-5090.127081,1346.213232
190.000,5926.823885,-5088.931253,1353.105182
191.000,5926.276838,-5087.731309,1359.996052
192.000,5925.725266,-5086.527250,1366.885836
193.000,5925.169172,-5085.319077,1373.774529
194.000,5924.608556,-5084.106789,1380.662125
195.000,5924.043419,-5082.890387,1387.548618
196.000,5923.473762,-5081.669872,1394.434004
197.000,5922.899587,-5080.445243,1401.318277
198.000,5922.320893,-5079.216500,1408.201430
199.000,5921.737683,-5077.983645,1415.083460
200.000,5921.149958,-5076.746678,1421.964360
201.000,5920.557717,-5075.505598,1428.844124
202.000,5919.960964,-5074.260406,1435.722748
203.000,5919.359698,-5073.011103,1442.600226
204.000,5918.753920,-5071.757688,1449.476551
205.000,5918.143632,-5070.500163,1456.351720
206.000,5917.528836,-5069.238527,1463.225726
207.000,5916.909531,-5067.972781,1470.098564
208.000,5916.285719,-5066.702925,1476.970228
209.000,5915.657401,-5065.428960,1483.840713
210.000,5915.024578,-5064.150885,1490.710013
211.000,5914.387252,-5062.868702,1497.578123
212.000,5913.745423,-5061.582410,1504.445038
213.000,5913.099093,-5060.292010,1511.310751
214.000,5912.448262,-5058.997502,1518.175258
215.000,5911.792932,-5057.698887,1525.038553
216.000,5911.133104,-5056.396165,1531.900630
217.000,5910.468779,-5055.089336,1538.761484
218.000,5909.799958,-5053.778401,1545.621110
219.000,5909.126642,-5052.463361,1552.479502
220.000,5908.448833,-5051.144214,1559.336654
221.000,5907.766531,-5049.820963,1566.192562
222.000,5907.079738,-5048.493607,1573.047219
223.000,5906.388455,-5047.162147,1579.900620
224.000,5905.692683,-5045.826583,1586.752760
225.000,5904.992422,-5044.486916,1593.603633
226.000,5904.287676,-5043.143145,1600.453234
227.000,5903.578443,-5041.795272,1607.301557
228.000,5902.864726,-5040.443296,1614.148597
229.000,5902.146526,-5039.087219,1620.994348
230.000,5901.423844,-5037.727040,1627.838805
231.000,5900.696681,-5036.362761,1634.681962
232.000,5899.965038,-5034.994380,1641.523814
233.000,5899.228916,-5033.621900,1648.364356
234.000,5898.488318,-5032.245320,1655.203582
235.000,5897.743243,-5030.864641,1662.041486
236.000,5896.993693,-5029.479863,1668.878064
237.000,5896.239669,-5028.090986,1675.713309
238.000,5895.481173,-5026.698012,1682.547216
239.000,5894.718205,-5025.300940,1689.379780
240.000,5893.950767,-5023.899771,1696.210995
241.000,5893.178860,-5022.494506,1703.040856
242.000,5892.402485,-5021.085144,1709.869358
243.000,5891.621644,-5019.671687,1716.696494
244.000,5890.836337,-5018.254135,1723.522260
245.000,5890.046567,-5016.832487,1730.346649
246.000,5889.252333,-5015.406746,1737.169657
247.000,5888.453638,-5013.976911,1743.991279
248.000,5887.650482,-5012.542983,1750.811508
249.000,5886.842867,-5011.104962,1757.630339
250.000,5886.030794,-5009.662849,1764.447767
251.000,5885.214264,-5008.216644,1771.263786
252.000,5884.393279,-5006.766347,1778.078392
253.000,5883.567840,-5005.311960,1784.891577
254.000,5882.737948,-5003.853483,1791.703338
255.000,5881.903604,-5002.390916,1798.513668
256.000,5881.064809,-5000.924259,1805.322563
257.000,5880.221565,-4999.453514,1812.130016
258.000,5879.373874,-4997.978681,1818.936022
259.000,5878.521735,-4996.499759,1825.740576
260.000,5877.665152,-4995.016751,1832.543673
261.000,5876.804124,-4993.529656,1839.345306
262.000,5875.938653,-4992.038475,1846.145471
263.000,5875.068741,-4990.543208,1852.944163
264.000,5874.194389,-4989.043856,1859.741374
265.000,5873.315597,-4987.540419,1866.537102
266.000,5872.432368,-4986.032899,1873.331338
267.000,5871.544703,-4984.521295,1880.124080
268.000,5870.652602,-4983.005608,1886.915320
269.000,5869.756068,-4981.485839,1893.705054
270.000,5868.855101,-4979.961988,1900.493276
271.000,5867.949703,-4978.434056,1907.279981
272.000,5867.039875,-4976.902043,1914.065163
273.000,5866.125619,-4975.365950,1920.848816
274.000,5865.206935,-4973.825778,1927.630937
275.000,5864.283826,-4972.281527,1934.411518
276.000,5863.356292,-4970.733197,1941.190555
277.000,5862.424335,-4969.180789,1947.968042
278.000,5861.487955,-4967.624305,1954.743975
279.000,5860.547156,-4966.063743,1961.518346
280.000,5859.601937,-4964.499106,1968.291151
281.000,5858.652300,-4962.930393,1975.062385
282.000,5857.698247,-4961.357606,1981.832043
283.000,5856.739779,-4959.780744,1988.600118
284.000,5855.776896,-4958.199808,1995.366605
285.000,5854.809602,-4956.614800,2002.131499
286.000,5853.837896,-4955.025719,2008.894795
287.000,5852.861781,-4953.432567,2015.656487
288.000,5851.881257,-4951.835343,2022.416570
289.000,5850.896326,-4950.234048,2029.175039
290.000,5849.906990,-4948.628684,2035.931887
291.000,5848.913249,-4947.019251,2042.687110
292.000,5847.915106,-4945.405749,2049.440702
293.000,5846.912561,-4943.788178,2056.192657
294.000,5845.905616,-4942.166541,2062.942972
295.000,5844.894272,-4940.540836,2069.691639
296.000,5843.878531,-4938.911066,2076.438654
297.000,5842.858395,-4937.277230,2083.184011
298.000,5841.833863,-4935.639330,2089.927705
299.000,5840.804939,-4933.997365,2096.669730
300.000,5839.771623,-4932.351337,2103.410082
301.000,5838.733917,-4930.701246,2110.148754
302.000,5837.691822,-4929.047092,2116.885741
303.000,5836.645340,-4927.388878,2123.621039
304.000,5835.594471,-4925.726602,2130.354641
305.000,5834.539218,-4924.060267,2137.086542
306.000,5833.479582,-4922.389872,2143.816738
307.000,5832.415564,-4920.715418,2150.545221
308.000,5831.347166,-4919.036906,2157.271988
309.000,5830.274390,-4917.354337,2163.997032
310.000,5829.197235,-4915.667711,2170.720349
311.000,5828.115705,-4913.977030,2177.441933
312.000,5827.029801,-4912.282293,2184.161778
313.000,5825.939523,-4910.583501,2190.879880
314.000,5824.844874,-4908.880655,2197.596232
315.000,5823.745854,-4907.173757,2204.310830
316.000,5822.642467,-4905.462806,2211.023668
317.000,5821.534711,-4903.747803,2217.734741
318.000,5820.422591,-4902.028749,2224.444043
319.000,5819.306106,-4900.305645,2231.151570
320.000,5818.185258,-4898.578491,2237.857315
321.000,5817.060049,-4896.847289,2244.561274
322.000,5815.930480,-4895.112038,2251.263440
323.000,5814.796553,-4893.372740,2257.963809
324.000,5813.658269,-4891.629396,2264.662376
325.000,5812.515630,-4889.882006,2271.359134
326.000,5811.368637,-4888.130570,2278.054080
327.000,5810.217291,-4886.375090,2284.747206
328.000,5809.061595,-4884.615567,2291.438508
329.000,5807.901549,-4882.852001,2298.127981
330.000,5806.737156,-4881.084393,2304.815620
331.000,5805.568417,-4879.312743,2311.501418
332.000,5804.395332,-4877.537053,2318.185371
333.000,5803.217905,-4875.757323,2324.867473
334.000,5802.036135,-4873.973554,2331.547719
335.000,5800.850026,-4872.185747,2338.226103
336.000,5799.659578,-4870.393903,2344.902621
337.000,5798.464793,-4868.598022,2351.577266
338.000,5797.265672,-4866.798105,2358.250035
339.000,5796.062217,-4864.994153,2364.920920
340.000,5794.854429,-4863.186167,2371.589918
341.000,5793.642311,-4861.374147,2378.257022
342.000,5792.425863,-4859.558095,2384.922227
343.000,5791.205088,-4857.738011,2391.585528
344.000,5789.979986,-4855.913896,2398.246920
345.000,5788.750559,-4854.085751,2404.906397
346.000,5787.516809,-4852.253576,2411.563955
347.000,5786.278738,-4850.417373,2418.219587
348.000,5785.036347,-4848.577142,2424.873288
349.000,5783.789637,-4846.732884,2431.525053
350.000,5782.538610,-4844.884600,2438.174877
351.000,5781.283268,-4843.032290,2444.822755
352.000,5780.023612,-4841.175957,2451.468681
353.000,5778.759644,-4839.315599,2458.112649
354.000,5777.491366,-4837.451219,2464.754655
355.000,5776.218778,-4835.582817,2471.394694
356.000,5774.941884,-4833.710394,2478.032759
357.000,5773.660683,-4831.833951,2484.668846
358.000,5772.375178,-4829.953489,2491.302949
359.000,5771.085371,-4828.069008,2497.935063
360.000,5769.791263,-4826.180510,2504.565183
361.000,5768.492856,-4824.287995,2511.193304
362.000,5767.190151,-4822.391464,2517.819420
363.000,5765.883149,-4820.490918,2524.443525
364.000,5764.571854,-4818.586358,2531.065615
365.000,5763.256265,-4816.677785,2537.685684
366.000,5761.936385,-4814.765199,2544.303728
367.000,5760.612216,-4812.848602,2550.919740
368.000,5759.283759,-4810.927995,2557.533715
369.000,5757.951016,-4809.003377,2564.145649
370.000,5756.613987,-4807.074752,2570.755535
371.000,5755.272676,-4805.142118,2577.363370
372.000,5753.927084,-4803.205477,2583.969146
373.000,5752.577212,-4801.264831,2590.572860
374.000,5751.223061,-4799.320179,2597.174505
375.000,5749.864635,-4797.371523,2603.774077
376.000,5748.501933,-4795.418864,2610.371570
377.000,5747.134959,-4793.462202,2616.966979
378.000,5745.763713,-4791.501539,2623.560298
379.000,5744.388198,-4789.536876,2630.151524
380.000,5743.008414,-4787.568213,2636.740649
381.000,5741.624364,-4785.595551,2643.327669
382.000,5740.236050,-4783.618892,2649.912579
383.000,5738.843472,-4781.638236,2656.495373
384.000,5737.446633,-4779.653585,2663.076047
385.000,5736.045535,-4777.664938,2669.654594
386.000,5734.640179,-4775.672298,2676.231010
387.000,5733.230566,-4773.675664,2682.805290
388.000,5731.816699,-4771.675039,2689.377427
389.000,5730.398579,-4769.670423,2695.947418
390.000,5728.976208,-4767.661816,2702.515256
391.000,5727.549587,-4765.649221,2709.080936
392.000,5726.118719,-4763.632638,2715.644454
393.000,5724.683605,-4761.612067,2722.205804
394.000,5723.244247,-4759.587510,2728.764980
395.000,5721.800646,-4757.558969,2735.321978
396.000,5720.352804,-4755.526443,2741.876792
397.000,5718.900723,-4753.489934,2748.429417
398.000,5717.444405,-4751.449443,2754.979847
399.000,5715.983851,-4749.404970,2761.528079
400.000,5714.519064,-4747.356518,2768.074105
401.000,5713.050044,-4745.304086,2774.617922
402.000,5711.576794,-4743.247676,2781.159523
403.000,5710.099316,-4741.187290,2787.698904
404.000,5708.617610,-4739.122927,2794.236060
405.000,5707.131680,-4737.054589,2800.770984
406.000,5705.641526,-4734.982276,2807.303673
407.000,5704.147150,-4732.905991,2813.834120
408.000,5702.648555,-4730.825734,2820.362321
409.000,5701.145741,-4728.741506,2826.888271
410.000,5699.638712,-4726.653308,2833.411963
411.000,5698.127468,-4724.561141,2839.933393
412.000,5696.612011,-4722.465006,2846.452556
413.000,5695.092343,-4720.364905,2852.969447
414.000,5693.568466,-4718.260837,2859.484059
415.000,5692.040382,-4716.152805,2865.996389
416.000,5690.508092,-4714.040809,2872.506431
417.000,5688.971598,-4711.924851,2879.014179
418.000,5687.430902,-4709.804931,2885.519629
419.000,5685.886006,-4707.681051,2892.022775
420.000,5684.336912,-4705.553211,2898.523613
421.000,5682.783621,-4703.421414,2905.022136
422.000,5681.226136,-4701.285658,2911.518340
423.000,5679.664457,-4699.145947,2918.012220
424.000,5678.098587,-4697.002281,2924.503770
425.000,5676.528528,-4694.854660,2930.992985
426.000,5674.954282,-4692.703087,2937.479860
427.000,5673.375850,-4690.547562,2943.964390
428.000,5671.793234,-4688.388086,2950.446569
429.000,5670.206436,-4686.224661,2956.926393
430.000,5668.615458,-4684.057287,2963.403857
431.000,5667.020301,-4681.885966,2969.878954
432.000,5665.420968,-4679.710698,2976.351680
433.000,5663.817460,-4677.531486,2982.822031
434.000,5662.209780,-4675.348329,2989.289999
435.000,5660.597928,-4673.161230,2995.755582
436.000,5658.981908,-4670.970188,3002.218772
437.000,5657.361720,-4668.775206,3008.679566
438.000,5655.737367,-4666.576285,3015.137958
439.000,5654.108851,-4664.373425,3021.593942
440.000,5652.476172,-4662.166627,3028.047514
441.000,5650.839334,-4659.955894,3034.498669
442.000,5649.198338,-4657.741226,3040.947401
443.000,5647.553186,-4655.522624,3047.393705
444.000,5645.903880,-4653.300089,3053.837577
445.000,5644.250422,-4651.073623,3060.279010
446.000,5642.592813,-4648.843226,3066.718000
447.000,5640.931056,-4646.608900,3073.154542
448.000,5639.265152,-4644.370646,3079.588630
